! Center RA: 04 18 21.28000,  Dec: +38 01 35.76000 (2000.0)
! Tentative model.
! Flux (Jy) Radius (mas)  Theta (deg)  Major FWHM (mas)  Axial ratio   Phi (deg) T \
! Freq (Hz)     SpecIndex
0.00174452      1.49773      55.8855 
-0.000970424      1.87275      70.0169 
-0.00181991     0.344093      54.4623 
-0.000912508     0.144222     -146.310 
-0.000709321      1.83521      69.5901 
0.000315882      1.44222      56.3099 
0.00117202      3.32024      68.0704 
-0.000574366      7.40616      67.4515 
-0.000676178      7.20100      66.4253 
-0.000272511      1.84954      68.4287 
-0.000501204      2.48709      62.1985 
0.00130080     0.555698      120.256 
0.000580737      8.22260      68.3021 
-0.000235246      2.67402      68.0394 
-0.000977625      8.17068      58.4109 
0.000397936     0.632456      55.3048 
7.25847e-05      1.55332      55.4915 
-0.000213157      7.55068      62.2132 
7.31214e-05      1.38679      56.7683 
-0.000133573     0.200000     -36.8699 
0.000365196      8.22192      55.3048 
-0.000185290      3.79305      62.3540 
0.000182334      1.60897      55.1247 
0.000541742      1.67093      78.9591 
0.000336146      8.02207      68.0394 
-0.000251196      7.16436      66.2974 
0.000372903      4.86687      64.6986 
0.000379261      1.33147      57.2648 
0.000589726      5.12562      55.8139 
2.30475e-05      2.93993      56.0937 
4.50489e-05      2.91781      56.7456 
-0.000668588      8.69694      64.9672 
0.000762454      9.06969      59.8163 
2.20373e-05      2.96243      55.4516 
-0.000214128      8.36497      60.4930 
0.000142414      2.89607      57.4074 
2.13335e-05      3.00852      54.1967 
-0.000516245      8.42568      63.7999 
-0.000155490      3.77465      62.8919 
0.000204664      3.05601      52.9801 
0.000402580      5.25479      59.3354 
-9.90575e-05      4.91105      69.4986 
-0.000333553      1.85946      71.1753 
6.94582e-05      1.58644      56.3099 
-0.000567001      2.65932      68.8387 
5.83034e-05      7.98499      67.9321 
0.000164850      1.64195      55.9228 
-0.000461457      2.71823      57.0115 
0.000450924      7.93625      66.5360 
-0.000181133      8.09484      58.7449 
0.000405002      2.08000      67.3801 
-1.92370e-05     0.200000     -53.1301 
0.000418868      1.18794      45.0000 
0.000126588      3.86078      55.9807 
-0.000368083      7.42159      67.1663 
0.000483116      3.51386      67.2296 
0.000530058      3.74422      71.9522 
0.000264931      2.78568      74.1676 
0.000454172      2.87472      58.0791 
-0.000150918      7.50147      65.7583 
-0.000665036      3.73909      62.6126 
-1.85499e-05      5.06123      70.1330 
-0.000255710     0.233238     -30.9638 
-0.000677754      5.07496      69.7082 
0.000235051      8.21004      56.9293 
-0.000167262      4.92520      69.0627 
-0.000302942      8.76036      58.6324 
-0.000641587      1.39714      66.3706 
0.000463234      5.28394      66.3458 
-0.000462030      3.91796      62.6501 
0.000141560      3.91632      55.8230 
1.72105e-05      1.21655      46.3322 
-0.000385043     0.923472      85.0303 
0.000244065      1.32061      54.8658 
-0.000460222      4.40236      61.8050 
-0.000553104      2.27297      61.6310 
0.000111702      5.08488      65.8545 
1.69255e-05      3.95171      58.2405 
0.000497097      8.26540      56.8483 
0.000487319      8.96330      64.3498 
8.45403e-05      5.10325      56.1854 
-9.12472e-05      8.25290      65.6710 
0.000509533      3.08026      52.3860 
0.000149288      3.93080      58.7363 
-0.000101545      8.37415      62.0885 
0.000727014      1.67905      77.6192 
3.15411e-05     0.576888      56.3099 
0.000622959      1.61988      57.0948 
-7.64120e-05      7.53796      65.8832 
0.000158977      1.35351      55.8403 
3.15170e-05      3.87587      58.9348 
-0.000212019      3.67325      51.6325 
-0.000154577      9.12710      61.7503 
0.000167500      7.81025      66.4546 
0.000235188      5.13778      65.6299 
-0.000563104      3.31880      74.6237 
-0.000145618      1.50785      68.1986 
0.000202836      3.76617      59.3493 
-0.000340166     0.888144      54.1623 
0.000135021      7.97004      68.1986 
6.86025e-05      2.05913      65.9245 
7.36974e-05      2.84675      72.8381 
0.000209691      1.29800      56.3099 
-0.000227786      8.82370      61.5761 
-0.000314088      1.11571      75.4655 
-0.000166027      2.76810      52.6333 
0.000191726      5.49749      60.8239 
0.000138240      3.69129      60.1011 
-9.35421e-05      3.58352      56.8421 
0.000291705      2.85881      72.0721 
0.000174880      3.93893      55.3416 
0.000158318      8.44313      56.9875 
0.000394777      9.06951      58.3428 
-0.000197494      8.14980      58.6504 
-6.61131e-05      3.62414      52.6242 
-0.000102474      1.54506      68.7495 
0.000270648      3.74593      59.8757 
-3.93325e-05      8.66672      57.6302 
0.000212967      2.09571      66.3706 
0.000165719      5.12141      66.0375 
-9.05111e-05      7.67771      61.6992 
-0.000156341     0.304631      156.801 
-5.97547e-05      8.23650      65.9245 
-0.000127923      9.07295      61.8532 
4.89236e-05      3.53565      68.0782 
-0.000153965      4.88786      68.8952 
0.000162206      3.14197      68.3340 
-0.000175231      8.72193      57.5490 
0.000131465      4.15769      59.9816 
2.45172e-05      1.01980      64.4400 
0.000201085      7.98889      66.3870 
-9.05714e-05      3.60555      56.3099 
0.000291898      1.00319      66.5014 
0.000195280      2.25211      56.5922 
-3.61417e-05      3.60000      53.1301 
-2.37521e-05      8.73961      58.8564 
0.000184178      7.75763      66.6075 
1.20827e-05     0.268328      26.5651 
-0.000215166      3.20250      62.4748 
-1.19730e-05      1.52315      66.8014 
0.000108602     0.304631      23.1986 
-0.000267283     0.912140      52.1250 
-0.000149881      1.56000      67.3801 
0.000168719      4.65446      61.2323 
-0.000156633      8.69400      63.7886 
-0.000187823      3.56808      52.7447 
0.000155032      3.99460      55.1960 
-0.000175103      5.00831      53.7708 
9.26166e-05      5.47810      61.1892 
0.000132781     0.329848      104.036 
0.000102782      3.79473      71.5651 
-4.26413e-05      5.15302      62.2415 
-1.07566e-05      7.55439      65.6063 
0.000111700      2.85377      58.7608 
-0.000101819      9.24035      58.9937 
9.10639e-05      3.71139      59.5658 
-3.99599e-05      8.22027      66.1791 
-8.11689e-05      5.09902      62.4299 
-5.97722e-05      2.69666      69.1455 
5.00028e-05      8.42140      57.2157 
4.99469e-05      8.18828      57.1639 
-3.98199e-05      5.18845      62.4472 
-2.98726e-05      2.59384      63.4349 
1.99950e-05      5.09274      57.1837 
-1.01853e-05      8.32010      62.2030 
4.93423e-05      7.95226      66.2716 
-7.86473e-05      3.68521      62.8787 
-1.96982e-05      3.62789      55.7843 
1.94447e-05      8.48462      65.4890 
-2.91693e-05      7.84653      69.7174 
1.94841e-05      8.12236      64.3183 
9.74132e-06      3.02655      60.7247 
-1.93577e-05      5.08897      69.2858 
-1.93321e-05      5.06360      62.2204 
-9.68164e-06      2.64515      69.6468 
